ENDF/B-VII.1 Angular Distribution of Neutrons: 7-N-14(n,elastic)
Incident Neutron Energy: 2.000000E+7 eV
  
Cosine Value    Normalized Probability
1.000E0     4.413E-2
9.990E-1    4.398E-2
9.962E-1    4.353E-2
9.914E-1    4.282E-2
9.848E-1    4.192E-2
9.763E-1    4.089E-2
9.659E-1    3.983E-2
9.537E-1    3.882E-2
9.397E-1    3.793E-2
9.239E-1    3.722E-2
9.063E-1    3.672E-2
8.870E-1    3.645E-2
8.660E-1    3.640E-2
8.434E-1    3.650E-2
8.192E-1    3.669E-2
7.934E-1    3.688E-2
7.660E-1    3.699E-2
7.373E-1    3.691E-2
7.071E-1    3.658E-2
6.756E-1    3.595E-2
6.428E-1    3.503E-2
6.088E-1    3.385E-2
5.736E-1    3.253E-2
5.373E-1    3.123E-2
5.000E-1    3.016E-2
4.617E-1    2.962E-2
4.226E-1    2.991E-2
3.827E-1    3.138E-2
3.420E-1    3.437E-2
3.007E-1    3.921E-2
2.588E-1    4.619E-2
2.164E-1    5.549E-2
1.736E-1    6.723E-2
1.305E-1    8.136E-2
8.716E-2    9.769E-2
4.362E-2    1.159E-1
6.123E-17   1.354E-1
-4.362E-2   1.555E-1
-8.716E-2   1.754E-1
-1.305E-1   1.942E-1
-1.736E-1   2.108E-1
-2.164E-1   2.242E-1
-2.588E-1   2.336E-1
-3.007E-1   2.385E-1
-3.420E-1   2.386E-1
-3.827E-1   2.343E-1
-4.226E-1   2.265E-1
-4.617E-1   2.171E-1
-5.000E-1   2.089E-1
-5.373E-1   2.057E-1
-5.736E-1   2.122E-1
-6.088E-1   2.345E-1
-6.428E-1   2.793E-1
-6.756E-1   3.539E-1
-7.071E-1   4.662E-1
-7.373E-1   6.238E-1
-7.660E-1   8.338E-1
-7.934E-1   1.102E0
-8.192E-1   1.432E0
-8.434E-1   1.826E0
-8.660E-1   2.282E0
-8.870E-1   2.795E0
-9.063E-1   3.357E0
-9.239E-1   3.953E0
-9.397E-1   4.570E0
-9.537E-1   5.187E0
-9.659E-1   5.784E0
-9.763E-1   6.339E0
-9.848E-1   6.829E0
-9.914E-1   7.234E0
-9.962E-1   7.537E0
-9.990E-1   7.725E0
-1.000E0    7.788E0
ENDF/B-VII.1 Angular Distribution of Neutrons: 7-N-14(n,elastic)
Incident Neutron Energy: 2.200000E+7 eV
  
Cosine Value    Normalized Probability
1.000E0     2.131E-2
9.990E-1    2.125E-2
9.962E-1    2.109E-2
9.914E-1    2.084E-2
9.848E-1    2.055E-2
9.763E-1    2.028E-2
9.659E-1    2.007E-2
9.537E-1    1.999E-2
9.397E-1    2.008E-2
9.239E-1    2.037E-2
9.063E-1    2.089E-2
8.870E-1    2.162E-2
8.660E-1    2.253E-2
8.434E-1    2.356E-2
8.192E-1    2.466E-2
7.934E-1    2.573E-2
7.660E-1    2.668E-2
7.373E-1    2.742E-2
7.071E-1    2.787E-2
6.756E-1    2.798E-2
6.428E-1    2.772E-2
6.088E-1    2.712E-2
5.736E-1    2.622E-2
5.373E-1    2.515E-2
5.000E-1    2.407E-2
4.617E-1    2.320E-2
4.226E-1    2.279E-2
3.827E-1    2.313E-2
3.420E-1    2.455E-2
3.007E-1    2.735E-2
2.588E-1    3.185E-2
2.164E-1    3.828E-2
1.736E-1    4.686E-2
1.305E-1    5.767E-2
8.716E-2    7.071E-2
4.362E-2    8.582E-2
6.123E-17   1.027E-1
-4.362E-2   1.208E-1
-8.716E-2   1.396E-1
-1.305E-1   1.581E-1
-1.736E-1   1.757E-1
-2.164E-1   1.911E-1
-2.588E-1   2.037E-1
-3.007E-1   2.124E-1
-3.420E-1   2.169E-1
-3.827E-1   2.170E-1
-4.226E-1   2.133E-1
-4.617E-1   2.071E-1
-5.000E-1   2.006E-1
-5.373E-1   1.973E-1
-5.736E-1   2.018E-1
-6.088E-1   2.200E-1
-6.428E-1   2.589E-1
-6.756E-1   3.267E-1
-7.071E-1   4.322E-1
-7.373E-1   5.844E-1
-7.660E-1   7.922E-1
-7.934E-1   1.063E0
-8.192E-1   1.403E0
-8.434E-1   1.816E0
-8.660E-1   2.301E0
-8.870E-1   2.855E0
-9.063E-1   3.468E0
-9.239E-1   4.127E0
-9.397E-1   4.815E0
-9.537E-1   5.510E0
-9.659E-1   6.187E0
-9.763E-1   6.820E0
-9.848E-1   7.382E0
-9.914E-1   7.849E0
-9.962E-1   8.200E0
-9.990E-1   8.417E0
-1.000E0    8.491E0
ENDF/B-VII.1 Angular Distribution of Neutrons: 7-N-14(n,elastic)
Incident Neutron Energy: 2.300000E+7 eV
  
Cosine Value    Normalized Probability
1.000E0     1.666E-2
9.990E-1    1.660E-2
9.962E-1    1.645E-2
9.914E-1    1.622E-2
9.848E-1    1.596E-2
9.763E-1    1.572E-2
9.659E-1    1.555E-2
9.537E-1    1.551E-2
9.397E-1    1.564E-2
9.239E-1    1.599E-2
9.063E-1    1.655E-2
8.870E-1    1.734E-2
8.660E-1    1.833E-2
8.434E-1    1.947E-2
8.192E-1    2.069E-2
7.934E-1    2.191E-2
7.660E-1    2.306E-2
7.373E-1    2.403E-2
7.071E-1    2.474E-2
6.756E-1    2.515E-2
6.428E-1    2.521E-2
6.088E-1    2.492E-2
5.736E-1    2.431E-2
5.373E-1    2.349E-2
5.000E-1    2.257E-2
4.617E-1    2.174E-2
4.226E-1    2.121E-2
3.827E-1    2.127E-2
3.420E-1    2.217E-2
3.007E-1    2.424E-2
2.588E-1    2.776E-2
2.164E-1    3.300E-2
1.736E-1    4.019E-2
1.305E-1    4.949E-2
8.716E-2    6.093E-2
4.362E-2    7.447E-2
6.123E-17   8.988E-2
-4.362E-2   1.068E-1
-8.716E-2   1.247E-1
-1.305E-1   1.428E-1
-1.736E-1   1.604E-1
-2.164E-1   1.765E-1
-2.588E-1   1.902E-1
-3.007E-1   2.006E-1
-3.420E-1   2.071E-1
-3.827E-1   2.094E-1
-4.226E-1   2.078E-1
-4.617E-1   2.034E-1
-5.000E-1   1.982E-1
-5.373E-1   1.954E-1
-5.736E-1   1.993E-1
-6.088E-1   2.158E-1
-6.428E-1   2.520E-1
-6.756E-1   3.162E-1
-7.071E-1   4.177E-1
-7.373E-1   5.662E-1
-7.660E-1   7.711E-1
-7.934E-1   1.041E0
-8.192E-1   1.384E0
-8.434E-1   1.802E0
-8.660E-1   2.298E0
-8.870E-1   2.868E0
-9.063E-1   3.502E0
-9.239E-1   4.189E0
-9.397E-1   4.909E0
-9.537E-1   5.639E0
-9.659E-1   6.353E0
-9.763E-1   7.022E0
-9.848E-1   7.619E0
-9.914E-1   8.116E0
-9.962E-1   8.489E0
-9.990E-1   8.721E0
-1.000E0    8.799E0
ENDF/B-VII.1 Angular Distribution of Neutrons: 7-N-14(n,elastic)
Incident Neutron Energy: 2.400000E+7 eV
  
Cosine Value    Normalized Probability
1.000E0     1.352E-2
9.990E-1    1.347E-2
9.962E-1    1.331E-2
9.914E-1    1.307E-2
9.848E-1    1.279E-2
9.763E-1    1.253E-2
9.659E-1    1.233E-2
9.537E-1    1.225E-2
9.397E-1    1.234E-2
9.239E-1    1.264E-2
9.063E-1    1.316E-2
8.870E-1    1.391E-2
8.660E-1    1.487E-2
8.434E-1    1.600E-2
8.192E-1    1.725E-2
7.934E-1    1.854E-2
7.660E-1    1.978E-2
7.373E-1    2.090E-2
7.071E-1    2.182E-2
6.756E-1    2.247E-2
6.428E-1    2.281E-2
6.088E-1    2.281E-2
5.736E-1    2.251E-2
5.373E-1    2.195E-2
5.000E-1    2.125E-2
4.617E-1    2.053E-2
4.226E-1    1.999E-2
3.827E-1    1.986E-2
3.420E-1    2.039E-2
3.007E-1    2.185E-2
2.588E-1    2.454E-2
2.164E-1    2.872E-2
1.736E-1    3.465E-2
1.305E-1    4.251E-2
8.716E-2    5.242E-2
4.362E-2    6.441E-2
6.123E-17   7.835E-2
-4.362E-2   9.398E-2
-8.716E-2   1.109E-1
-1.305E-1   1.284E-1
-1.736E-1   1.459E-1
-2.164E-1   1.624E-1
-2.588E-1   1.771E-1
-3.007E-1   1.889E-1
-3.420E-1   1.972E-1
-3.827E-1   2.016E-1
-4.226E-1   2.021E-1
-4.617E-1   1.995E-1
-5.000E-1   1.956E-1
-5.373E-1   1.932E-1
-5.736E-1   1.966E-1
-6.088E-1   2.115E-1
-6.428E-1   2.449E-1
-6.756E-1   3.054E-1
-7.071E-1   4.026E-1
-7.373E-1   5.468E-1
-7.660E-1   7.484E-1
-7.934E-1   1.017E0
-8.192E-1   1.361E0
-8.434E-1   1.785E0
-8.660E-1   2.291E0
-8.870E-1   2.876E0
-9.063E-1   3.532E0
-9.239E-1   4.246E0
-9.397E-1   4.998E0
-9.537E-1   5.764E0
-9.659E-1   6.516E0
-9.763E-1   7.224E0
-9.848E-1   7.856E0
-9.914E-1   8.383E0
-9.962E-1   8.780E0
-9.990E-1   9.027E0
-1.000E0    9.111E0
ENDF/B-VII.1 Angular Distribution of Neutrons: 7-N-14(n,elastic)
Incident Neutron Energy: 2.600000E+7 eV
  
Cosine Value    Normalized Probability
1.000E0     1.027E-2
9.990E-1    1.020E-2
9.962E-1    1.000E-2
9.914E-1    9.695E-3
9.848E-1    9.322E-3
9.763E-1    8.929E-3
9.659E-1    8.572E-3
9.537E-1    8.304E-3
9.397E-1    8.179E-3
9.239E-1    8.237E-3
9.063E-1    8.510E-3
8.870E-1    9.012E-3
8.660E-1    9.737E-3
8.434E-1    1.067E-2
8.192E-1    1.176E-2
7.934E-1    1.296E-2
7.660E-1    1.421E-2
7.373E-1    1.543E-2
7.071E-1    1.656E-2
6.756E-1    1.752E-2
6.428E-1    1.828E-2
6.088E-1    1.878E-2
5.736E-1    1.901E-2
5.373E-1    1.899E-2
5.000E-1    1.877E-2
4.617E-1    1.841E-2
4.226E-1    1.804E-2
3.827E-1    1.781E-2
3.420E-1    1.790E-2
3.007E-1    1.854E-2
2.588E-1    1.997E-2
2.164E-1    2.246E-2
1.736E-1    2.627E-2
1.305E-1    3.165E-2
8.716E-2    3.881E-2
4.362E-2    4.790E-2
6.123E-17   5.898E-2
-4.362E-2   7.199E-2
-8.716E-2   8.671E-2
-1.305E-1   1.027E-1
-1.736E-1   1.195E-1
-2.164E-1   1.363E-1
-2.588E-1   1.523E-1
-3.007E-1   1.664E-1
-3.420E-1   1.779E-1
-3.827E-1   1.859E-1
-4.226E-1   1.902E-1
-4.617E-1   1.910E-1
-5.000E-1   1.896E-1
-5.373E-1   1.883E-1
-5.736E-1   1.908E-1
-6.088E-1   2.024E-1
-6.428E-1   2.302E-1
-6.756E-1   2.831E-1
-7.071E-1   3.712E-1
-7.373E-1   5.061E-1
-7.660E-1   6.997E-1
-7.934E-1   9.635E-1
-8.192E-1   1.308E0
-8.434E-1   1.740E0
-8.660E-1   2.264E0
-8.870E-1   2.879E0
-9.063E-1   3.578E0
-9.239E-1   4.346E0
-9.397E-1   5.163E0
-9.537E-1   6.003E0
-9.659E-1   6.833E0
-9.763E-1   7.620E0
-9.848E-1   8.327E0
-9.914E-1   8.919E0
-9.962E-1   9.366E0
-9.990E-1   9.644E0
-1.000E0    9.739E0
ENDF/B-VII.1 Angular Distribution of Neutrons: 7-N-14(n,elastic)
Incident Neutron Energy: 2.700000E+7 eV
  
Cosine Value    Normalized Probability
1.000E0     9.543E-3
9.990E-1    9.467E-3
9.962E-1    9.246E-3
9.914E-1    8.903E-3
9.848E-1    8.476E-3
9.763E-1    8.013E-3
9.659E-1    7.566E-3
9.537E-1    7.190E-3
9.397E-1    6.939E-3
9.239E-1    6.857E-3
9.063E-1    6.976E-3
8.870E-1    7.317E-3
8.660E-1    7.882E-3
8.434E-1    8.657E-3
8.192E-1    9.613E-3
7.934E-1    1.071E-2
7.660E-1    1.188E-2
7.373E-1    1.308E-2
7.071E-1    1.423E-2
6.756E-1    1.527E-2
6.428E-1    1.616E-2
6.088E-1    1.684E-2
5.736E-1    1.729E-2
5.373E-1    1.751E-2
5.000E-1    1.752E-2
4.617E-1    1.737E-2
4.226E-1    1.714E-2
3.827E-1    1.696E-2
3.420E-1    1.696E-2
3.007E-1    1.736E-2
2.588E-1    1.836E-2
2.164E-1    2.021E-2
1.736E-1    2.317E-2
1.305E-1    2.752E-2
8.716E-2    3.349E-2
4.362E-2    4.129E-2
6.123E-17   5.104E-2
-4.362E-2   6.277E-2
-8.716E-2   7.636E-2
-1.305E-1   9.152E-2
-1.736E-1   1.078E-1
-2.164E-1   1.245E-1
-2.588E-1   1.408E-1
-3.007E-1   1.557E-1
-3.420E-1   1.684E-1
-3.827E-1   1.780E-1
-4.226E-1   1.840E-1
-4.617E-1   1.864E-1
-5.000E-1   1.862E-1
-5.373E-1   1.855E-1
-5.736E-1   1.876E-1
-6.088E-1   1.978E-1
-6.428E-1   2.229E-1
-6.756E-1   2.719E-1
-7.071E-1   3.554E-1
-7.373E-1   4.853E-1
-7.660E-1   6.744E-1
-7.934E-1   9.350E-1
-8.192E-1   1.279E0
-8.434E-1   1.714E0
-8.660E-1   2.247E0
-8.870E-1   2.875E0
-9.063E-1   3.594E0
-9.239E-1   4.389E0
-9.397E-1   5.239E0
-9.537E-1   6.116E0
-9.659E-1   6.987E0
-9.763E-1   7.815E0
-9.848E-1   8.560E0
-9.914E-1   9.186E0
-9.962E-1   9.659E0
-9.990E-1   9.954E0
-1.000E0    1.005E1
ENDF/B-VII.1 Angular Distribution of Neutrons: 7-N-14(n,elastic)
Incident Neutron Energy: 2.800000E+7 eV
  
Cosine Value    Normalized Probability
1.000E0     9.124E-3
9.990E-1    9.042E-3
9.962E-1    8.802E-3
9.914E-1    8.428E-3
9.848E-1    7.955E-3
9.763E-1    7.429E-3
9.659E-1    6.902E-3
9.537E-1    6.429E-3
9.397E-1    6.061E-3
9.239E-1    5.844E-3
9.063E-1    5.815E-3
8.870E-1    5.997E-3
8.660E-1    6.397E-3
8.434E-1    7.011E-3
8.192E-1    7.815E-3
7.934E-1    8.777E-3
7.660E-1    9.850E-3
7.373E-1    1.098E-2
7.071E-1    1.212E-2
6.756E-1    1.319E-2
6.428E-1    1.416E-2
6.088E-1    1.498E-2
5.736E-1    1.561E-2
5.373E-1    1.604E-2
5.000E-1    1.626E-2
4.617E-1    1.631E-2
4.226E-1    1.624E-2
3.827E-1    1.614E-2
3.420E-1    1.613E-2
3.007E-1    1.637E-2
2.588E-1    1.704E-2
2.164E-1    1.839E-2
1.736E-1    2.066E-2
1.305E-1    2.411E-2
8.716E-2    2.903E-2
4.362E-2    3.566E-2
6.123E-17   4.417E-2
-4.362E-2   5.467E-2
-8.716E-2   6.712E-2
-1.305E-1   8.135E-2
-1.736E-1   9.697E-2
-2.164E-1   1.134E-1
-2.588E-1   1.299E-1
-3.007E-1   1.454E-1
-3.420E-1   1.592E-1
-3.827E-1   1.701E-1
-4.226E-1   1.776E-1
-4.617E-1   1.816E-1
-5.000E-1   1.826E-1
-5.373E-1   1.824E-1
-5.736E-1   1.843E-1
-6.088E-1   1.931E-1
-6.428E-1   2.157E-1
-6.756E-1   2.610E-1
-7.071E-1   3.398E-1
-7.373E-1   4.646E-1
-7.660E-1   6.488E-1
-7.934E-1   9.060E-1
-8.192E-1   1.249E0
-8.434E-1   1.687E0
-8.660E-1   2.226E0
-8.870E-1   2.868E0
-9.063E-1   3.607E0
-9.239E-1   4.428E0
-9.397E-1   5.310E0
-9.537E-1   6.225E0
-9.659E-1   7.137E0
-9.763E-1   8.006E0
-9.848E-1   8.791E0
-9.914E-1   9.451E0
-9.962E-1   9.951E0
-9.990E-1   1.026E1
-1.000E0    1.037E1
ENDF/B-VII.1 Angular Distribution of Neutrons: 7-N-14(n,elastic)
Incident Neutron Energy: 3.000000E+7 eV
  
Cosine Value    Normalized Probability
1.000E0     8.646E-3
9.990E-1    8.557E-3
9.962E-1    8.298E-3
9.914E-1    7.889E-3
9.848E-1    7.361E-3
9.763E-1    6.757E-3
9.659E-1    6.124E-3
9.537E-1    5.512E-3
9.397E-1    4.971E-3
9.239E-1    4.547E-3
9.063E-1    4.275E-3
8.870E-1    4.185E-3
8.660E-1    4.292E-3
8.434E-1    4.600E-3
8.192E-1    5.103E-3
7.934E-1    5.781E-3
7.660E-1    6.607E-3
7.373E-1    7.545E-3
7.071E-1    8.555E-3
6.756E-1    9.591E-3
6.428E-1    1.061E-2
6.088E-1    1.157E-2
5.736E-1    1.243E-2
5.373E-1    1.315E-2
5.000E-1    1.373E-2
4.617E-1    1.414E-2
4.226E-1    1.440E-2
3.827E-1    1.454E-2
3.420E-1    1.463E-2
3.007E-1    1.475E-2
2.588E-1    1.506E-2
2.164E-1    1.573E-2
1.736E-1    1.698E-2
1.305E-1    1.907E-2
8.716E-2    2.228E-2
4.362E-2    2.691E-2
6.123E-17   3.324E-2
-4.362E-2   4.148E-2
-8.716E-2   5.175E-2
-1.305E-1   6.404E-2
-1.736E-1   7.816E-2
-2.164E-1   9.369E-2
-2.588E-1   1.100E-1
-3.007E-1   1.263E-1
-3.420E-1   1.415E-1
-3.827E-1   1.546E-1
-4.226E-1   1.647E-1
-4.617E-1   1.713E-1
-5.000E-1   1.746E-1
-5.373E-1   1.758E-1
-5.736E-1   1.774E-1
-6.088E-1   1.839E-1
-6.428E-1   2.018E-1
-6.756E-1   2.400E-1
-7.071E-1   3.097E-1
-7.373E-1   4.241E-1
-7.660E-1   5.981E-1
-7.934E-1   8.470E-1
-8.192E-1   1.186E0
-8.434E-1   1.627E0
-8.660E-1   2.179E0
-8.870E-1   2.845E0
-9.063E-1   3.621E0
-9.239E-1   4.493E0
-9.397E-1   5.440E0
-9.537E-1   6.430E0
-9.659E-1   7.424E0
-9.763E-1   8.378E0
-9.848E-1   9.243E0
-9.914E-1   9.974E0
-9.962E-1   1.053E1
-9.990E-1   1.088E1
-1.000E0    1.099E1
ENDF/B-VII.1 Angular Distribution of Neutrons: 7-N-14(n,elastic)
Incident Neutron Energy: 3.500000E+7 eV
  
Cosine Value    Normalized Probability
1.000E0     6.891E-3
9.990E-1    6.819E-3
9.962E-1    6.605E-3
9.914E-1    6.264E-3
9.848E-1    5.816E-3
9.763E-1    5.289E-3
9.659E-1    4.713E-3
9.537E-1    4.122E-3
9.397E-1    3.548E-3
9.239E-1    3.023E-3
9.063E-1    2.573E-3
8.870E-1    2.220E-3
8.660E-1    1.980E-3
8.434E-1    1.866E-3
8.192E-1    1.883E-3
7.934E-1    2.032E-3
7.660E-1    2.311E-3
7.373E-1    2.715E-3
7.071E-1    3.237E-3
6.756E-1    3.867E-3
6.428E-1    4.592E-3
6.088E-1    5.396E-3
5.736E-1    6.259E-3
5.373E-1    7.157E-3
5.000E-1    8.058E-3
4.617E-1    8.929E-3
4.226E-1    9.733E-3
3.827E-1    1.044E-2
3.420E-1    1.102E-2
3.007E-1    1.146E-2
2.588E-1    1.179E-2
2.164E-1    1.206E-2
1.736E-1    1.236E-2
1.305E-1    1.287E-2
8.716E-2    1.379E-2
4.362E-2    1.541E-2
6.123E-17   1.805E-2
-4.362E-2   2.206E-2
-8.716E-2   2.777E-2
-1.305E-1   3.548E-2
-1.736E-1   4.534E-2
-2.164E-1   5.737E-2
-2.588E-1   7.132E-2
-3.007E-1   8.670E-2
-3.420E-1   1.027E-1
-3.827E-1   1.184E-1
-4.226E-1   1.325E-1
-4.617E-1   1.440E-1
-5.000E-1   1.521E-1
-5.373E-1   1.569E-1
-5.736E-1   1.594E-1
-6.088E-1   1.628E-1
-6.428E-1   1.722E-1
-6.756E-1   1.959E-1
-7.071E-1   2.450E-1
-7.373E-1   3.341E-1
-7.660E-1   4.806E-1
-7.934E-1   7.041E-1
-8.192E-1   1.025E0
-8.434E-1   1.463E0
-8.660E-1   2.033E0
-8.870E-1   2.745E0
-9.063E-1   3.601E0
-9.239E-1   4.590E0
-9.397E-1   5.690E0
-9.537E-1   6.865E0
-9.659E-1   8.065E0
-9.763E-1   9.235E0
-9.848E-1   1.031E1
-9.914E-1   1.123E1
-9.962E-1   1.193E1
-9.990E-1   1.237E1
-1.000E0    1.252E1
ENDF/B-VII.1 Angular Distribution of Neutrons: 7-N-14(n,elastic)
Incident Neutron Energy: 4.000000E+7 eV
  
Cosine Value    Normalized Probability
1.000E0     4.172E-3
9.990E-1    4.131E-3
9.962E-1    4.011E-3
9.914E-1    3.820E-3
9.848E-1    3.569E-3
9.763E-1    3.274E-3
9.659E-1    2.951E-3
9.537E-1    2.619E-3
9.397E-1    2.294E-3
9.239E-1    1.991E-3
9.063E-1    1.721E-3
8.870E-1    1.494E-3
8.660E-1    1.315E-3
8.434E-1    1.189E-3
8.192E-1    1.117E-3
7.934E-1    1.100E-3
7.660E-1    1.142E-3
7.373E-1    1.246E-3
7.071E-1    1.417E-3
6.756E-1    1.662E-3
6.428E-1    1.991E-3
6.088E-1    2.412E-3
5.736E-1    2.930E-3
5.373E-1    3.547E-3
5.000E-1    4.257E-3
4.617E-1    5.047E-3
4.226E-1    5.891E-3
3.827E-1    6.756E-3
3.420E-1    7.602E-3
3.007E-1    8.383E-3
2.588E-1    9.062E-3
2.164E-1    9.614E-3
1.736E-1    1.004E-2
1.305E-1    1.040E-2
8.716E-2    1.078E-2
4.362E-2    1.134E-2
6.123E-17   1.233E-2
-4.362E-2   1.405E-2
-8.716E-2   1.686E-2
-1.305E-1   2.115E-2
-1.736E-1   2.726E-2
-2.164E-1   3.548E-2
-2.588E-1   4.593E-2
-3.007E-1   5.850E-2
-3.420E-1   7.280E-2
-3.827E-1   8.810E-2
-4.226E-1   1.034E-1
-4.617E-1   1.174E-1
-5.000E-1   1.290E-1
-5.373E-1   1.372E-1
-5.736E-1   1.422E-1
-6.088E-1   1.454E-1
-6.428E-1   1.505E-1
-6.756E-1   1.643E-1
-7.071E-1   1.971E-1
-7.373E-1   2.636E-1
-7.660E-1   3.826E-1
-7.934E-1   5.767E-1
-8.192E-1   8.714E-1
-8.434E-1   1.292E0
-8.660E-1   1.864E0
-8.870E-1   2.603E0
-9.063E-1   3.519E0
-9.239E-1   4.607E0
-9.397E-1   5.846E0
-9.537E-1   7.197E0
-9.659E-1   8.604E0
-9.763E-1   9.995E0
-9.848E-1   1.129E1
-9.914E-1   1.241E1
-9.962E-1   1.327E1
-9.990E-1   1.382E1
-1.000E0    1.400E1
ENDF/B-VII.1 Angular Distribution of Neutrons: 7-N-14(n,elastic)
Incident Neutron Energy: 4.500000E+7 eV
  
Cosine Value    Normalized Probability
1.000E0     2.024E-3
9.990E-1    2.006E-3
9.962E-1    1.951E-3
9.914E-1    1.865E-3
9.848E-1    1.756E-3
9.763E-1    1.630E-3
9.659E-1    1.499E-3
9.537E-1    1.371E-3
9.397E-1    1.254E-3
9.239E-1    1.154E-3
9.063E-1    1.075E-3
8.870E-1    1.017E-3
8.660E-1    9.786E-4
8.434E-1    9.575E-4
8.192E-1    9.497E-4
7.934E-1    9.521E-4
7.660E-1    9.633E-4
7.373E-1    9.847E-4
7.071E-1    1.021E-3
6.756E-1    1.081E-3
6.428E-1    1.178E-3
6.088E-1    1.326E-3
5.736E-1    1.544E-3
5.373E-1    1.847E-3
5.000E-1    2.250E-3
4.617E-1    2.760E-3
4.226E-1    3.377E-3
3.827E-1    4.091E-3
3.420E-1    4.879E-3
3.007E-1    5.707E-3
2.588E-1    6.532E-3
2.164E-1    7.310E-3
1.736E-1    8.001E-3
1.305E-1    8.583E-3
8.716E-2    9.064E-3
4.362E-2    9.503E-3
6.123E-17   1.002E-2
-4.362E-2   1.081E-2
-8.716E-2   1.215E-2
-1.305E-1   1.438E-2
-1.736E-1   1.789E-2
-2.164E-1   2.309E-2
-2.588E-1   3.030E-2
-3.007E-1   3.974E-2
-3.420E-1   5.137E-2
-3.827E-1   6.484E-2
-4.226E-1   7.946E-2
-4.617E-1   9.418E-2
-5.000E-1   1.077E-1
-5.373E-1   1.187E-1
-5.736E-1   1.264E-1
-6.088E-1   1.311E-1
-6.428E-1   1.348E-1
-6.756E-1   1.426E-1
-7.071E-1   1.635E-1
-7.373E-1   2.111E-1
-7.660E-1   3.046E-1
-7.934E-1   4.686E-1
-8.192E-1   7.324E-1
-8.434E-1   1.128E0
-8.660E-1   1.687E0
-8.870E-1   2.437E0
-9.063E-1   3.394E0
-9.239E-1   4.563E0
-9.397E-1   5.926E0
-9.537E-1   7.444E0
-9.659E-1   9.053E0
-9.763E-1   1.067E1
-9.848E-1   1.219E1
-9.914E-1   1.352E1
-9.962E-1   1.455E1
-9.990E-1   1.521E1
-1.000E0    1.543E1
ENDF/B-VII.1 Angular Distribution of Neutrons: 7-N-14(n,elastic)
Incident Neutron Energy: 5.000000E+7 eV
  
Cosine Value    Normalized Probability
1.000E0     8.880E-4
9.990E-1    8.794E-4
9.962E-1    8.548E-4
9.914E-1    8.173E-4
9.848E-1    7.715E-4
9.763E-1    7.231E-4
9.659E-1    6.783E-4
9.537E-1    6.426E-4
9.397E-1    6.205E-4
9.239E-1    6.146E-4
9.063E-1    6.258E-4
8.870E-1    6.524E-4
8.660E-1    6.913E-4
8.434E-1    7.376E-4
8.192E-1    7.860E-4
7.934E-1    8.310E-4
7.660E-1    8.687E-4
7.373E-1    8.969E-4
7.071E-1    9.165E-4
6.756E-1    9.320E-4
6.428E-1    9.517E-4
6.088E-1    9.878E-4
5.736E-1    1.056E-3
5.373E-1    1.174E-3
5.000E-1    1.360E-3
4.617E-1    1.632E-3
4.226E-1    2.004E-3
3.827E-1    2.484E-3
3.420E-1    3.071E-3
3.007E-1    3.752E-3
2.588E-1    4.505E-3
2.164E-1    5.295E-3
1.736E-1    6.080E-3
1.305E-1    6.818E-3
8.716E-2    7.478E-3
4.362E-2    8.051E-3
6.123E-17   8.571E-3
-4.362E-2   9.131E-3
-8.716E-2   9.897E-3
-1.305E-1   1.112E-2
-1.736E-1   1.314E-2
-2.164E-1   1.635E-2
-2.588E-1   2.117E-2
-3.007E-1   2.797E-2
-3.420E-1   3.698E-2
-3.827E-1   4.820E-2
-4.226E-1   6.127E-2
-4.617E-1   7.545E-2
-5.000E-1   8.960E-2
-5.373E-1   1.023E-1
-5.736E-1   1.123E-1
-6.088E-1   1.189E-1
-6.428E-1   1.229E-1
-6.756E-1   1.277E-1
-7.071E-1   1.403E-1
-7.373E-1   1.730E-1
-7.660E-1   2.445E-1
-7.934E-1   3.800E-1
-8.192E-1   6.116E-1
-8.434E-1   9.765E-1
-8.660E-1   1.514E0
-8.870E-1   2.260E0
-9.063E-1   3.244E0
-9.239E-1   4.476E0
-9.397E-1   5.948E0
-9.537E-1   7.620E0
-9.659E-1   9.424E0
-9.763E-1   1.126E1
-9.848E-1   1.302E1
-9.914E-1   1.457E1
-9.962E-1   1.578E1
-9.990E-1   1.655E1
-1.000E0    1.682E1
